Time [ms],Current(PhaseA) [A],Current(PhaseB) [A],Current(PhaseC) [A],Moving1.Position [deg],Moving1.Torque [NewtonMeter],Moving1.Speed [rpm]
130.0004,0.943105145,0.754030006,-1.144488256,95.31978568,1.380156008,2809.188486
130.5004,0.791333679,1.004571094,-1.185338876,103.7491127,1.570837098,2810.66083
131.0004,0.609510205,1.173791239,-1.215281189,112.1839991,1.431466754,2812.381654
131.5004,0.420699695,1.256672158,-1.173249667,120.622431,1.361563012,2813.130869
132.0004,0.194854607,1.340607258,-1.134999684,129.0630651,1.491249302,2814.160784
132.5004,-0.03390729,1.485402333,-1.092924381,137.5081098,1.513226702,2815.904806
133.0004,-0.218365118,1.49675614,-0.990507645,145.9575732,1.292643093,2816.728116
133.5004,-0.389785012,1.51589998,-0.853155456,154.4074851,1.300550102,2816.557997
134.0004,-0.56280242,1.615727764,-0.687047843,162.8571608,1.344434756,2816.627509
134.5004,-0.693838144,1.628747219,-0.514588411,171.3066051,1.162493945,2816.051966
135.0004,-0.761621833,1.543256648,-0.301571211,179.7525059,1.138536783,2814.5097
135.5004,-0.859952538,1.494014466,-0.062472137,188.1938576,1.205748103,2813.161729
136.0004,-0.967154967,1.392648098,0.130752701,196.6311324,1.066106738,2811.469968
136.5004,-1.004158571,1.191993604,0.312310552,205.0613223,0.917646329,2808.423092
137.0004,-1.051472614,0.968656519,0.488528666,213.4813729,1.005563174,2805.078144
137.5004,-1.11448568,0.691101915,0.66213134,221.8924675,1.065215523,2802.409533
138.0004,-1.117844305,0.414866043,0.773990097,230.2959498,1.033149029,2799.860624
138.5004,-1.102576978,0.109442806,0.848329829,238.6919362,1.132551943,2797.616709
139.0004,-1.091519458,-0.171620077,0.970913221,247.0824801,1.212389055,2796.202842
139.5004,-1.011636999,-0.472437148,1.03449571,255.4694627,1.199572032,2795.098462
140.0004,-0.893205123,-0.719805163,1.055267277,263.8534612,1.296639642,2794.384367
140.5004,-0.747710076,-0.954506446,1.094805939,272.2372839,1.523884831,2795.185265
141.0004,-0.562785697,-1.129497805,1.138160632,280.6251135,1.410883022,2796.526853
141.5004,-0.375517441,-1.205886017,1.103786277,289.0155304,1.326970618,2796.953799
142.0004,-0.155531741,-1.277352865,1.071037986,297.4069861,1.442949033,2797.530623
142.5004,0.074960623,-1.421920866,1.029753851,305.8014615,1.486164497,2798.854752
143.0004,0.259634701,-1.441762943,0.927806943,314.1995385,1.318328526,2799.602748
143.5004,0.428074263,-1.451649596,0.789105623,322.5983556,1.331340514,2799.62835
144.0004,0.599485804,-1.541963915,0.619630277,330.9975509,1.370399409,2799.896184
144.5004,0.728028285,-1.553656607,0.44015018,339.3971439,1.205150697,2799.575283
145.0004,0.790489656,-1.467294346,0.22655846,347.7941626,1.191364781,2798.414413
145.5004,0.883540237,-1.416163511,-0.011268851,356.187916,1.267562207,2797.539143
146.0004,0.985362439,-1.316287766,-0.200897612,4.579122027,1.133118767,2796.388461
146.5004,1.009069003,-1.092087338,-0.391594855,12.96507944,1.01912672,2794.070448
147.0004,1.04712711,-0.868149145,-0.56920281,21.34349971,1.125999678,2791.707432
147.5004,1.105744287,-0.585418066,-0.73638732,29.71605384,1.177201758,2790.074233
148.0004,1.093447755,-0.294581262,-0.844540254,38.08403219,1.145712231,2788.528116
148.5004,1.081402186,-0.008957288,-0.911142773,46.44747346,1.232144058,2787.232924
149.0004,1.057375997,0.301216575,-1.028227888,54.80822442,1.316607883,2786.732416
149.5004,0.967332925,0.601484877,-1.073075318,63.16833683,1.332464584,2786.700773
150.0004,0.846741945,0.845838778,-1.081895923,71.52899385,1.437168914,2787.233919
150.5004,0.696455005,1.082120671,-1.119395523,79.89319542,1.642817147,2789.222151
151.0004,0.503465079,1.241818562,-1.146459389,88.26470604,1.515901265,2791.58967
151.5004,0.314244323,1.307324262,-1.097653708,96.64188353,1.458917291,2793.107272
152.0004,0.09021878,1.378382589,-1.063767306,105.0237664,1.604053039,2795.041643
152.5004,-0.140873979,1.506173126,-1.017420428,113.4128603,1.612465125,2797.702919
153.0004,-0.326300522,1.500535623,-0.902822572,121.8090041,1.391994419,2799.384385
153.5004,-0.497985178,1.50258585,-0.760040935,130.2082195,1.408985204,2800.118791
154.0004,-0.674366212,1.585193075,-0.587614251,138.6100056,1.453493431,2801.141927
154.5004,-0.794635882,1.574902031,-0.406287399,147.0145695,1.300747072,2801.663424
155.0004,-0.853172057,1.476896069,-0.187463774,155.4191973,1.284615433,2801.396023
155.5004,-0.950219296,1.425323811,0.050337142,163.8231018,1.334717084,2801.284874
156.0004,-1.040253177,1.319081822,0.237598633,172.2263828,1.172685817,2800.650003
156.5004,-1.055625299,1.090701475,0.432812192,180.6257798,1.074245561,2798.793087
157.0004,-1.090725597,0.863758056,0.61227345,189.0193397,1.21722503,2797.134602
157.5004,-1.143303691,0.58302471,0.779120608,197.4093328,1.234934972,2796.221527
158.0004,-1.122681914,0.293367339,0.881217686,205.7964093,1.162201955,2795.048886
158.5004,-1.10634105,-0.004316569,0.95048611,214.1798208,1.277668657,2794.070898
159.0004,-1.080851515,-0.304871285,1.066498964,222.56178,1.365029492,2794.038155
159.5004,-0.988240951,-0.605521981,1.107529494,230.9444368,1.360040009,2794.392506
160.0004,-0.867572526,-0.850936457,1.114873275,239.3285973,1.463377589,2795.209124
160.5004,-0.715267254,-1.092310555,1.15135064,247.7170713,1.654094484,2797.405505
161.0004,-0.526143433,-1.249139047,1.174659516,256.1131881,1.494622246,2799.759651
161.5004,-0.336251233,-1.318244214,1.123633688,264.5147332,1.460443701,2801.217704
162.0004,-0.110348812,-1.391749705,1.088772732,272.9210573,1.614120122,2803.238801
162.5004,0.119618965,-1.520301728,1.040955634,281.3348097,1.596082699,2805.903614
163.0004,0.304130001,-1.51563673,0.930811971,289.7553481,1.369797554,2807.437466
163.5004,0.47587384,-1.521017201,0.788615797,298.1785404,1.404123843,2808.077232
164.0004,0.65114444,-1.607798222,0.619051679,306.6041387,1.43958212,2809.044208
164.5004,0.774111581,-1.600005698,0.440894291,315.0321982,1.273306084,2809.403747
165.0004,0.834569322,-1.507971602,0.223787182,323.4597177,1.25923254,2808.919861
165.5004,0.931483787,-1.45456586,-0.014446073,331.8858175,1.295489217,2808.536134
166.0004,1.026360853,-1.346507251,-0.206418042,340.3103207,1.128297825,2807.538583
166.5004,1.047775103,-1.134161788,-0.393384822,348.7297807,1.025461203,2805.272675
167.0004,1.08825795,-0.90925646,-0.572017047,357.1421045,1.162358844,2803.154502
167.5004,1.14261144,-0.629081211,-0.740780948,5.549402451,1.175735888,2801.731106
168.0004,1.129798814,-0.345076774,-0.847517546,13.95230709,1.123943107,2800.123693
168.5004,1.111686158,-0.04399787,-0.917471526,22.35037631,1.226726871,2798.747984
169.0004,1.092787776,0.250755355,-1.036726395,30.74558686,1.294304154,2798.164137
169.5004,1.005348592,0.547851489,-1.087285734,39.13968249,1.295586445,2797.901648
170.0004,0.884894523,0.795442278,-1.099475259,47.53350619,1.403297978,2798.148606
170.5004,0.735579684,1.032865574,-1.135529459,55.92998344,1.59642877,2799.804875
171.0004,0.549058839,1.200742204,-1.168421868,64.33267361,1.473563722,2801.799314
171.5004,0.361126951,1.270617995,-1.123268073,72.73990382,1.40741378,2802.91825
172.0004,0.138617217,1.345670361,-1.088190783,81.15043262,1.526319119,2804.286695
172.5004,-0.092215381,1.480056856,-1.043763417,89.5662956,1.549709999,2806.326754
173.0004,-0.277110403,1.48681573,-0.937687933,97.98758402,1.351319502,2807.557687
173.5004,-0.445318342,1.494425369,-0.799170103,106.4107117,1.350189669,2807.858595
174.0004,-0.619952798,1.586335078,-0.629970899,114.8349229,1.391495582,2808.346785
174.5004,-0.745736708,1.588208078,-0.452635885,123.2602239,1.228152894,2808.266428
175.0004,-0.80828397,1.499894681,-0.238136292,131.6836715,1.210101617,2807.336083
175.5004,-0.901669889,1.446979878,-0.000236584,140.1044456,1.273190787,2806.611007
176.0004,-1.002377881,1.343096006,0.192900366,148.5229752,1.13318491,2805.523641
176.5004,-1.02723695,1.131018903,0.377106624,156.9363224,1.003833907,2803.171192
177.0004,-1.067222659,0.905437877,0.554730618,165.3418745,1.108409499,2800.690891
177.5004,-1.12507735,0.627033075,0.723889166,173.741178,1.157860231,2798.920898
178.0004,-1.11571147,0.342022072,0.832747497,182.1354281,1.115664431,2797.179156
178.5004,-1.100085987,0.048277765,0.901856665,190.5244359,1.198455217,2795.620359
179.0004,-1.081106827,-0.248302958,1.020781462,198.9099279,1.283158107,2794.839163
179.5004,-0.995374464,-0.550111011,1.072424624,207.2939183,1.294436631,2794.505372
180.0004,-0.874680199,-0.795999866,1.0854908,215.6774309,1.383900945,2794.642396
180.5004,-0.7258594,-1.031063841,1.121650901,224.0631936,1.597869316,2796.200332
181.0004,-0.538163569,-1.199555847,1.156032396,232.4551192,1.485889223,2798.244484
181.5004,-0.350261633,-1.269921549,1.112257291,240.8517214,1.395145117,2799.349525
182.0004,-0.128012077,-1.339433285,1.076628925,249.2513679,1.517754712,2800.606179
182.5004,0.103293266,-1.476528984,1.032852793,257.6561334,1.559652699,2802.63772
183.0004,0.288535884,-1.481645263,0.925707158,266.0664623,1.359206457,2803.93729
183.5004,0.457744779,-1.490023355,0.786155323,274.4788745,1.3701685,2804.354221
184.0004,0.630294162,-1.573928871,0.615859186,282.8928843,1.422662483,2805.067893
184.5004,0.75726792,-1.579137033,0.436806379,291.3086817,1.241136802,2805.181421
185.0004,0.817823163,-1.486920241,0.222158384,299.72305,1.225533496,2804.372064
185.5004,0.910527369,-1.433696056,-0.016734702,308.1351923,1.301699511,2803.840926
186.0004,1.008955518,-1.331177758,-0.206916057,316.5457442,1.150768066,2802.958478
186.5004,1.032504098,-1.112826206,-0.395776618,324.9516016,1.01581974,2800.734489
187.0004,1.068897055,-0.887110714,-0.572254752,333.350049,1.131417432,2798.408365
187.5004,1.125485671,-0.607119012,-0.742052794,341.7427999,1.177792559,2796.830374
188.0004,1.112828949,-0.319664966,-0.848254322,350.1310358,1.1334142,2795.256878
188.5004,1.097598996,-0.027471068,-0.916845067,358.5146044,1.235409025,2793.946572
189.0004,1.075958438,0.271356283,-1.032515899,6.895571866,1.317565489,2793.492943
189.5004,0.98897743,0.575589414,-1.082797634,15.27593216,1.314550824,2793.409426
190.0004,0.867155875,0.819588606,-1.092761247,23.65648568,1.415227567,2793.783167
190.5004,0.717580731,1.055496572,-1.12655673,32.04011201,1.630599214,2795.637762
191.0004,0.528342103,1.221250697,-1.159641959,40.43065247,1.485723361,2797.832576
191.5004,0.339683461,1.290034924,-1.113249787,48.82610793,1.414890294,2799.027854
192.0004,0.117418293,1.357047385,-1.077168376,57.22512652,1.550738309,2800.530055
192.5004,-0.114025188,1.493447434,-1.031847596,65.63002746,1.571490986,2802.771451
193.0004,-0.29946074,1.495100846,-0.923427814,74.04093423,1.37299352,2804.191849
193.5004,-0.469090554,1.4996735,-0.782764357,82.45433454,1.390200782,2804.768241
194.0004,-0.642568866,1.583560943,-0.612351059,90.86979859,1.427356094,2805.599552
194.5004,-0.769129333,1.585458395,-0.432464815,99.28729858,1.254004999,2805.797592
195.0004,-0.829967959,1.492046879,-0.217060736,107.70371,1.240596276,2805.121524
195.5004,-0.920661408,1.436601816,0.021502148,116.1182624,1.305130812,2804.680165
196.0004,-1.0200377,1.335102645,0.213397967,124.5314249,1.162606817,2803.872687
196.5004,-1.041107994,1.114525962,0.401241575,132.940254,1.039932787,2801.820687
197.0004,-1.077613733,0.889906564,0.577798681,141.3422516,1.144070538,2799.671255
197.5004,-1.132677313,0.608466768,0.746986762,149.7389677,1.188505509,2798.208001
198.0004,-1.120171002,0.321209907,0.855332836,158.1315222,1.14987219,2796.767381
198.5004,-1.102391816,0.028381461,0.921557645,166.5197715,1.232373245,2795.526215
199.0004,-1.081518336,-0.271403589,1.03948934,174.9054251,1.310239472,2795.030626
199.5004,-0.993808522,-0.572858516,1.088247921,183.2903264,1.311818396,2794.906173
200.0004,-0.871944083,-0.817317449,1.098251926,191.6753207,1.408221375,2795.240312
200.5004,-0.72216585,-1.053018513,1.13108159,200.0632508,1.628256802,2797.056969
201.0004,-0.53337821,-1.221003289,1.164880436,208.4581406,1.508209294,2799.351645
201.5004,-0.345296431,-1.289411488,1.118500432,216.8583989,1.42049167,2800.68461
202.0004,-0.1227504,-1.357189084,1.080821452,225.2623822,1.536119391,2802.151554
202.5004,0.108670934,-1.493667147,1.036311561,233.6720361,1.574776342,2804.346364
203.0004,0.295006633,-1.497614878,0.929083385,242.0877199,1.375623594,2805.80064
203.5004,0.463244432,-1.501690166,0.788818372,250.5058829,1.369247597,2806.297819
204.0004,0.636530266,-1.585696764,0.618365626,258.925719,1.420985244,2807.007267
204.5004,0.76381486,-1.589558491,0.439675059,267.3473956,1.255062603,2807.185833
205.0004,0.824826865,-1.497084132,0.2247899,275.7679028,1.221982835,2806.433149
205.5004,0.915801623,-1.441986552,-0.013999412,284.1861791,1.295575336,2805.865111
206.0004,1.015939562,-1.339378241,-0.206784755,292.6028106,1.161916026,2805.014189
206.5004,1.039003749,-1.123048005,-0.392293305,301.0149618,1.017987495,2802.860783
207.0004,1.075781418,-0.897604597,-0.56911423,309.4197896,1.124633411,2800.521738
207.5004,1.131530407,-0.617515845,-0.739385889,317.818821,1.175874235,2798.911509
208.0004,1.120927753,-0.330664415,-0.848205396,326.2132976,1.134025616,2797.340208
208.5004,1.103566774,-0.037499492,-0.915948791,334.6031015,1.228361682,2796.008192
209.0004,1.082770918,0.260258328,-1.032830311,342.9902101,1.31962954,2795.539521
209.5004,0.99691544,0.563178399,-1.084700238,351.3766988,1.305371907,2795.430943
210.0004,0.874388511,0.807106187,-1.095292737,359.7631605,1.397535361,2795.687084
210.5004,0.725260028,1.043582293,-1.12806752,8.152345134,1.630755961,2797.467088
211.0004,0.537358184,1.210631872,-1.162645987,16.54848501,1.506939031,2799.769087
211.5004,0.348739731,1.28321994,-1.118576371,24.94989674,1.401332293,2801.008175
212.0004,0.128760204,1.34882361,-1.080121158,33.35456626,1.513216244,2802.279467
212.5004,-0.104395946,1.485513725,-1.035893009,41.76430491,1.556575686,2804.28212
213.0004,-0.290250413,1.491942426,-0.929693482,50.17958308,1.366698616,2805.608866
213.5004,-0.458864873,1.497227564,-0.789463317,58.59711547,1.375597665,2806.092979
214.0004,-0.630116481,1.579327451,-0.619778285,67.01643091,1.428631047,2806.867053
214.5004,-0.760075146,1.587892827,-0.440394926,75.43767248,1.23686256,2806.995817
215.0004,-0.820573316,1.495279592,-0.226805651,83.85740095,1.213982736,2806.119714
215.5004,-0.909581364,1.43856812,0.012286624,92.27466749,1.297197118,2805.52034
216.0004,-1.011532139,1.338356876,0.20483216,100.6902366,1.153149837,2804.634556
216.5004,-1.035921669,1.120492683,0.391167768,109.1011677,1.018637628,2802.441595
217.0004,-1.071694678,0.896995452,0.565938191,117.5047209,1.120270744,2800.083424
217.5004,-1.127622348,0.61506395,0.736633387,125.9023456,1.165551242,2798.402698
218.0004,-1.118265018,0.328729805,0.846372271,134.2952076,1.136488943,2796.792443
218.5004,-1.100894605,0.03720859,0.913159412,142.6834007,1.231118368,2795.482561
219.0004,-1.079881888,-0.260469349,1.028746593,151.0689104,1.310092889,2794.980101
219.5004,-0.995153435,-0.564184936,1.082609362,159.4536047,1.300332688,2794.801018
220.0004,-0.872556839,-0.807493454,1.093505183,167.8380967,1.391390048,2795.002159
220.5004,-0.723591831,-1.042339019,1.124377179,176.2251073,1.618442285,2796.692944
221.0004,-0.534800014,-1.21317844,1.161487783,184.6188285,1.51202135,2798.957824
221.5004,-0.346497717,-1.283506717,1.11709129,193.0179213,1.416813623,2800.289776
222.0004,-0.126436343,-1.346978496,1.078476857,201.4205894,1.516042728,2801.644013
222.5004,0.106260104,-1.485094436,1.033757549,209.8284675,1.56146876,2803.680398
223.0004,0.293672511,-1.494217232,0.928524485,218.2420542,1.381973214,2805.099145
223.5004,0.460614526,-1.494843637,0.787487205,226.6581993,1.376016748,2805.654818
224.0004,0.633243953,-1.579460211,0.617216424,235.0761595,1.419572365,2806.386869
224.5004,0.762257425,-1.586554403,0.43745084,243.4958741,1.237136918,2806.47254
225.0004,0.823378744,-1.493899383,0.223592007,251.9140165,1.210670447,2805.58005
225.5004,0.909812086,-1.435028152,-0.015031934,260.3296054,1.291967864,2804.938529
226.0004,1.014053573,-1.336980387,-0.208528285,268.7434772,1.174652707,2804.126459
226.5004,1.037593665,-1.11834976,-0.393892164,277.1531398,1.030997946,2802.090019
227.0004,1.072279868,-0.892752872,-0.569656368,285.5557042,1.110005797,2799.740554
227.5004,1.12772921,-0.611749484,-0.739831039,293.9522063,1.166371074,2798.014284
228.0004,1.118393215,-0.32419116,-0.850605825,302.3439325,1.141702439,2796.430598
228.5004,1.10032513,-0.034228447,-0.915716514,310.731053,1.223921893,2795.110037
229.0004,1.079292789,0.266131008,-1.03137455,319.1154291,1.321517446,2794.625832
229.5004,0.993677882,0.56816812,-1.084080451,327.4992243,1.312982336,2794.557972
230.0004,0.871046512,0.811973989,-1.095243361,335.8830915,1.38864395,2794.804685
230.5004,0.722037673,1.046018396,-1.125124459,344.2695212,1.626603553,2796.520098
231.0004,0.532744145,1.217586434,-1.162530487,352.6628634,1.525767975,2798.886814
231.5004,0.344819069,1.286648267,-1.117763308,1.061832233,1.408420788,2800.243729
232.0004,0.125907728,1.351541425,-1.078051012,9.464257735,1.510492602,2801.532608
232.5004,-0.108199258,1.48766536,-1.034054653,17.87176932,1.565846449,2803.562931
233.0004,-0.295502078,1.496405537,-0.92842705,26.28503951,1.381069938,2804.997449
233.5004,-0.462854632,1.497850922,-0.787520851,34.70088675,1.379474966,2805.564698
234.0004,-0.634784276,1.579945532,-0.61685561,43.11873111,1.445816718,2806.435356
234.5004,-0.764318698,1.588522923,-0.437187843,51.5388994,1.250446751,2806.706525
235.0004,-0.825878483,1.495467504,-0.223254829,59.95788064,1.212908916,2805.888073
235.5004,-0.912512584,1.436133901,0.015565033,68.37447072,1.303532992,2805.312503
236.0004,-1.015456903,1.337979876,0.208959901,76.78959675,1.179325429,2804.578019
236.5004,-1.040339907,1.120340265,0.39554709,85.20061814,1.021900318,2802.522843
237.0004,-1.073636095,0.893192244,0.569861007,93.60438149,1.106336528,2800.115354
237.5004,-1.129587792,0.611937893,0.741201882,102.0019892,1.16926488,2798.386847
238.0004,-1.119335126,0.324518991,0.851059024,110.3948253,1.133760327,2796.78104
238.5004,-1.101479349,0.034380227,0.917355138,118.7829816,1.236042067,2795.481389
239.0004,-1.080029022,-0.263901516,1.030679108,127.1686386,1.332496857,2795.10678
239.5004,-0.994880657,-0.568565116,1.086118411,135.5539317,1.302102471,2795.041545
240.0004,-0.872192985,-0.811145218,1.096380587,143.9391416,1.386653318,2795.230007
240.5004,-0.722987287,-1.045113182,1.124807264,152.326837,1.627901522,2796.943775
241.0004,-0.533872945,-1.217022828,1.163188036,160.7214105,1.514124777,2799.263798
241.5004,-0.345359152,-1.287993691,1.119097053,169.1214191,1.411708965,2800.58305
242.0004,-0.12691437,-1.347614094,1.078343615,177.5249043,1.512465232,2801.897824
242.5004,0.106603377,-1.486593248,1.033927805,185.9334866,1.55607937,2803.893201
243.0004,0.294521139,-1.497043965,0.929498753,194.3476732,1.384261255,2805.29821
243.5004,0.46185624,-1.49879453,0.788414239,202.7644922,1.387593595,2805.919509
244.0004,0.632136323,-1.578339887,0.61841395,211.1834134,1.431780191,2806.76401
244.5004,0.764124714,-1.591165221,0.438204583,219.6043986,1.241928634,2806.930933
245.0004,0.824935831,-1.496403958,0.225332542,228.0239255,1.202431765,2806.024312
245.5004,0.909636,-1.436033129,-0.013945779,236.4407823,1.293986961,2805.355445
246.0004,1.014524136,-1.339153482,-0.207998485,244.8559608,1.182094142,2804.589242
246.5004,1.040265894,-1.120584975,-0.393856202,253.2670943,1.033154183,2802.599643
247.0004,1.073069947,-0.896194471,-0.567101895,261.6712063,1.109002204,2800.257708
247.5004,1.128504385,-0.613342477,-0.738599552,270.0692517,1.165955677,2798.526893
248.0004,1.120124357,-0.326695353,-0.850676288,278.4625104,1.14072842,2796.938761
248.5004,1.101419938,-0.037237494,-0.915391912,286.8511723,1.228834757,2795.638662
249.0004,1.080741918,0.262163703,-1.02998501,295.2371672,1.318045433,2795.16337
249.5004,0.996360457,0.566839589,-1.085769203,303.6224783,1.298523515,2795.013817
250.0004,0.872504534,0.809061073,-1.09647025,312.0075484,1.381802865,2795.162565
250.5004,0.723335331,1.041211544,-1.122937986,320.3949226,1.61228627,2796.780247
