Time [s],Current(PhaseA) [A],Current(PhaseB) [A],Current(PhaseC) [A],Moving1.Position [deg],Moving1.Torque [NewtonMeter],Moving1.Speed [rpm]
0.25,2.182566402,-0.006246021,-2.176320381,180.3745341,1.240996137,2837.721883
0.2505,1.957589975,0.392496126,-2.350086101,188.8868249,1.263116014,2837.177681
0.251,1.689791493,0.790235962,-2.480027455,197.3978763,1.292852095,2836.909613
0.2515,1.373614683,1.15284535,-2.526460033,205.9082652,1.259997733,2836.624217
0.252,1.027858475,1.476034671,-2.503893146,214.4175268,1.275441438,2836.244007
0.2525,0.653675386,1.805085414,-2.4587608,222.9260486,1.319822297,2836.183117
0.253,0.270425646,2.054043684,-2.32446933,231.4344624,1.24498568,2835.959131
0.2535,-0.123523929,2.247348224,-2.123824296,239.9413751,1.240332521,2835.306928
0.254,-0.521369169,2.399802686,-1.878433518,248.446428,1.268809991,2834.778757
0.2545,-0.913109065,2.50816268,-1.595053615,256.9502963,1.287019007,2834.499181
0.255,-1.265844365,2.533117507,-1.267273142,265.4533288,1.251386901,2834.125347
0.2555,-1.584158999,2.497085781,-0.912926782,273.9550193,1.281955487,2833.722427
0.256,-1.907699681,2.440949431,-0.53324975,282.4559731,1.309415064,2833.629222
0.2565,-2.131591383,2.269453846,-0.137862462,290.956568,1.239697904,2833.309382
0.257,-2.310755866,2.057268316,0.25348755,299.4554595,1.240899006,2832.619674
0.2575,-2.442716741,1.793111444,0.649605297,307.9524698,1.274662978,2832.113775
0.258,-2.525812747,1.492548988,1.033263759,316.4483398,1.278046406,2831.805479
0.2585,-2.531806563,1.156959056,1.374847507,324.9431259,1.24190699,2831.320347
0.259,-2.480684244,0.79182973,1.688854514,333.4363159,1.288598363,2830.889285
0.2595,-2.40609737,0.404243768,2.001853602,341.9287642,1.298606963,2830.760864
0.26,-2.21102862,0.007301046,2.203727574,350.4205922,1.234769992,2830.343501
0.2605,-1.984184361,-0.382800359,2.366984719,358.9105259,1.24333778,2829.626816
0.261,-1.702275383,-0.775666835,2.477942218,7.398578804,1.27753683,2829.135863
0.2615,-1.386656194,-1.14923916,2.535895354,15.88545342,1.264578061,2828.757254
0.262,-1.045852023,-1.480894956,2.526746979,24.3709044,1.237223126,2828.160712
0.2625,-0.669715024,-1.792316439,2.462031463,32.85457893,1.295200251,2827.72541
0.263,-0.26960157,-2.086619933,2.356221503,41.33753827,1.289929768,2827.571524
0.2635,0.122994607,-2.269555137,2.146560529,49.81966273,1.230899298,2827.072298
0.264,0.512850023,-2.413414056,1.900564033,58.29975107,1.249341015,2826.352077
0.2645,0.900599836,-2.503472613,1.602872778,66.77802891,1.278849948,2825.885573
0.265,1.26157109,-2.538835688,1.277264598,75.25506951,1.250559007,2825.424071
0.2655,1.584076866,-2.514756874,0.930680008,83.73037057,1.24147662,2824.7598
0.266,1.891982896,-2.433595278,0.541612382,92.2038904,1.300013827,2824.357616
0.2665,2.163293654,-2.296499438,0.133205784,100.6767287,1.281262956,2824.167844
0.267,2.327987263,-2.075541798,-0.252445465,109.1485136,1.228601769,2823.594227
0.2675,2.450627647,-1.807514604,-0.643113042,117.6181762,1.259961085,2822.902747
0.268,2.51886667,-1.495462567,-1.023404103,126.0861956,1.278686232,2822.4768
0.2685,2.533657679,-1.16434542,-1.369312259,134.5529106,1.236679171,2821.924501
0.269,2.491238852,-0.807152877,-1.684085975,143.0175985,1.252373278,2821.228109
0.2695,2.396539818,-0.40975675,-1.986783068,151.4806117,1.299232349,2820.864116
0.27,2.226415396,0.004160016,-2.230575411,159.9428903,1.272486561,2820.607227
0.2705,1.99629459,0.381482566,-2.377777156,168.4038812,1.229793439,2819.976543
0.271,1.708312485,0.772953037,-2.481265521,176.8627565,1.274468426,2819.352776
0.2715,1.382121265,1.142451668,-2.524572933,185.3202371,1.274858408,2818.968173
0.272,1.051014825,1.47314447,-2.524159295,193.7763028,1.225762152,2818.32082
0.2725,0.677746344,1.781257413,-2.459003757,202.2301097,1.265784077,2817.621189
0.273,0.272647271,2.073593172,-2.346240442,210.6823894,1.293320131,2817.281018
0.2735,-0.138545119,2.291232804,-2.152687685,219.1337934,1.265472519,2816.938442
0.274,-0.512323162,2.417608566,-1.905285404,227.5837236,1.238398763,2816.299383
0.2745,-0.90198367,2.504047525,-1.602063855,236.0317145,1.289385807,2815.785136
0.275,-1.257995541,2.521366673,-1.263371132,244.4785916,1.268054588,2815.428071
0.2755,-1.573474862,2.506071606,-0.932596744,252.9239139,1.220904054,2814.702002
0.276,-1.874822695,2.415768566,-0.540945871,261.3668611,1.279535051,2814.033418
0.2765,-2.150125351,2.281913156,-0.131787805,269.8084582,1.285461365,2813.708564
0.277,-2.345331271,2.076654091,0.26867718,278.249013,1.26114648,2813.284268
0.2775,-2.449068644,1.804372886,0.644695758,286.6879918,1.253844453,2812.688028
0.278,-2.517500275,1.487823874,1.029676401,295.1253421,1.299154491,2812.292758
0.2785,-2.509262537,1.141571863,1.367690674,303.5617646,1.257121929,2811.913737
0.279,-2.472861782,0.801898028,1.670963754,311.9964631,1.232149676,2811.173216
0.2795,-2.366171019,0.401861007,1.964310012,320.4289763,1.290002062,2810.605032
0.28,-2.211820605,-0.008971652,2.220792257,328.8603659,1.283334736,2810.309488
0.2805,-1.991651063,-0.395711905,2.387362968,337.290657,1.257318517,2809.837712
0.281,-1.697573438,-0.775775052,2.473348491,345.7193292,1.272084973,2809.302958
0.2815,-1.368691196,-1.152700027,2.521391223,354.1467157,1.302670974,2809.009136
0.282,-1.024284378,-1.47094889,2.495233267,2.57323717,1.24488666,2808.568471
0.2825,-0.661368261,-1.766019007,2.427387267,10.9978654,1.25449057,2807.866726
0.283,-0.258933936,-2.049697225,2.308631161,19.42072782,1.29965968,2807.455276
0.2835,0.148121953,-2.2822364,2.134114447,27.84272611,1.27875172,2807.172878
0.284,0.52382623,-2.416247312,1.892421082,36.26355736,1.261161022,2806.68275
0.2845,0.906180596,-2.489806781,1.583626185,44.68289851,1.293396895,2806.26853
0.285,1.268594029,-2.514487203,1.245893173,53.10137655,1.300220064,2806.062318
0.2855,1.569670796,-2.468489661,0.898818865,61.5189905,1.240983468,2805.574188
0.286,1.858887989,-2.376893649,0.51800566,69.93470098,1.278282317,2804.965361
0.2865,2.126626625,-2.242663734,0.116037109,78.34910847,1.302230025,2804.682332
0.287,2.334443663,-2.05410135,-0.280342313,86.76276928,1.273600734,2804.373611
0.2875,2.433544941,-1.780001777,-0.653543163,95.17520878,1.276181631,2803.923535
0.288,2.498957168,-1.464387335,-1.034569833,103.5865222,1.3134782,2803.685191
0.2885,2.493948965,-1.118123861,-1.375825104,111.99739,1.289348657,2803.516941
0.289,2.436516551,-0.769063359,-1.667453192,120.4072839,1.250284893,2803.008743
0.2895,2.323952169,-0.376060519,-1.94789165,128.8154998,1.300609331,2802.557885
0.29,2.16266172,0.027913392,-2.190575113,137.2229102,1.302596219,2802.385978
0.2905,1.959023048,0.409771695,-2.368794743,145.6296568,1.271040507,2802.055145
0.291,1.668592363,0.782496127,-2.45108849,154.035205,1.29623527,2801.688261
0.2915,1.346332408,1.157073274,-2.503405682,162.4400549,1.321384444,2801.589934
0.292,0.996852356,1.476675758,-2.473528114,170.8446259,1.274092686,2801.372874
0.2925,0.630327867,1.761015983,-2.391343849,179.2480245,1.271778814,2800.888167
0.293,0.230394909,2.030960302,-2.261355211,187.6502054,1.321280824,2800.653992
0.2935,-0.171901417,2.238811657,-2.06691024,196.0521001,1.30012718,2800.571537
0.294,-0.537200568,2.389657862,-1.852457294,204.4533837,1.274565285,2800.238201
0.2945,-0.910429389,2.457802782,-1.547373393,212.853653,1.323546664,2800.028502
0.295,-1.270623494,2.490215163,-1.21959167,221.2537949,1.319415931,2800.058956
0.2955,-1.570629017,2.442744314,-0.872115297,229.6537026,1.266780591,2799.785286
0.296,-1.850372227,2.339557269,-0.489185043,238.0523744,1.295165564,2799.379429
0.2965,-2.103782499,2.191427421,-0.087644922,246.4503032,1.327535541,2799.29763
0.297,-2.284850299,1.979658409,0.30519189,254.8481462,1.292488968,2799.201828
0.2975,-2.398104233,1.733716466,0.664387767,263.2453338,1.294024508,2798.925605
0.298,-2.457220814,1.421160811,1.036060003,271.6419875,1.346375213,2798.937043
0.2985,-2.46660043,1.093022669,1.373577761,280.0390105,1.304038745,2799.002974
0.299,-2.395615091,0.737717782,1.657897309,288.4356216,1.274832153,2798.685166
0.2995,-2.278071061,0.346057888,1.932013173,296.8311776,1.314915163,2798.423404
0.3,-2.108917572,-0.054394488,2.16331206,305.2264436,1.327465728,2798.44319
0.3005,-1.892436586,-0.429888348,2.322324934,313.6216852,1.286562985,2798.311475
0.301,-1.61599004,-0.790315351,2.406305391,322.0162825,1.322061957,2798.149783
0.3015,-1.299546935,-1.154994449,2.454541385,330.4109308,1.351320446,2798.335005
0.302,-0.964658787,-1.467193084,2.431851871,338.8061232,1.290234764,2798.350982
0.3025,-0.58963492,-1.739254565,2.328889485,347.200758,1.299468462,2798.088209
0.303,-0.198507379,-2.004875404,2.203382783,355.5948778,1.332531754,2798.0507
0.3035,0.195515866,-2.208763874,2.013248008,3.989198609,1.324811499,2798.149624
0.304,0.554484553,-2.341807093,1.78732254,12.38354469,1.289403629,2798.017734
0.3045,0.915341941,-2.411178192,1.495836251,20.77745843,1.353594784,2798.039259
0.305,1.263791822,-2.441510887,1.177719065,29.172076,1.344397092,2798.35654
0.3055,1.552954825,-2.379460105,0.826505279,37.56727945,1.293931383,2798.355596
0.306,1.818133694,-2.260737453,0.442603759,45.9621106,1.326101817,2798.25567
0.3065,2.06760115,-2.121793025,0.054191875,54.35704819,1.337772206,2798.390467
0.307,2.243820975,-1.915794956,-0.328026019,62.75242323,1.320266243,2798.495096
0.3075,2.350494012,-1.671826656,-0.678667355,71.14785219,1.306673941,2798.433149
0.308,2.405221783,-1.367335646,-1.037886138,79.54332663,1.377099027,2798.675708
0.3085,2.412059309,-1.04949522,-1.362564089,87.94002182,1.327821499,2799.03365
0.309,2.318461745,-0.683752117,-1.634709627,96.33717923,1.311691705,2799.042295
0.3095,2.197043615,-0.300843599,-1.896200016,104.7343807,1.347537015,2799.156038
0.31,2.035907177,0.08389755,-2.119804726,113.1322734,1.340954845,2799.427687
0.3105,1.815735789,0.453609838,-2.269345627,121.5308008,1.320038289,2799.553296
0.311,1.550207951,0.803238007,-2.353445958,129.929551,1.33306776,2799.636797
0.3115,1.234804729,1.155310394,-2.390115123,138.3289824,1.38719247,2800.081187
0.312,0.912828701,1.45422602,-2.367054722,146.7299561,1.317245187,2800.443502
0.3125,0.542960807,1.715201131,-2.258161938,155.1313904,1.339795812,2800.552794
0.313,0.15930812,1.969183168,-2.128491288,163.5335281,1.364802653,2800.917378
0.3135,-0.218647135,2.164335291,-1.945688156,171.9369222,1.344491643,2801.309451
0.314,-0.577286496,2.28560174,-1.708315244,180.3411767,1.325695817,2801.493404
0.3145,-0.927306341,2.353500939,-1.426194598,188.7460084,1.367851003,2801.80316
0.315,-1.265386267,2.36666237,-1.101276102,197.1523414,1.389765416,2802.458674
0.3155,-1.542198837,2.31834508,-0.776146243,205.560515,1.321430612,2802.868744
0.316,-1.794914373,2.198875082,-0.403960709,213.9694317,1.366763345,2803.156624
0.3165,-2.032576436,2.050756606,-0.01818017,222.3797252,1.371606944,2803.714985
0.317,-2.197746064,1.846283815,0.35146225,230.7916112,1.345599194,2804.162896
0.3175,-2.295924655,1.594969179,0.700955476,239.2045518,1.343175114,2804.459946
0.318,-2.348512855,1.29981094,1.048701915,247.6186632,1.39985014,2805.04933
0.3185,-2.338103258,0.971754925,1.366348333,256.0350568,1.381480458,2805.847792
0.319,-2.268014451,0.641135826,1.626878624,264.4534144,1.336592772,2806.310733
0.3195,-2.143232589,0.26900575,1.874226839,272.8729499,1.386574079,2806.802384
0.32,-1.967875085,-0.118958323,2.086833408,281.2944338,1.374353711,2807.499128
0.3205,-1.743505538,-0.477888169,2.221393707,289.7177427,1.348266587,2807.993845
0.321,-1.478803811,-0.82418862,2.302992431,298.1423562,1.366447807,2808.447918
0.3215,-1.172178226,-1.164352762,2.336530988,306.5687809,1.413206574,2809.252695
0.322,-0.852293326,-1.460895223,2.31318855,314.997881,1.367207951,2810.066054
0.3225,-0.506947485,-1.706787483,2.213734968,323.428892,1.3593905,2810.594184
0.323,-0.134627128,-1.949422407,2.084049535,331.8616222,1.399676498,2811.298431
0.3235,0.247000771,-2.136700651,1.88969988,340.2967472,1.370754303,2812.067329
0.324,0.599478074,-2.238502421,1.639024347,348.7337877,1.354575808,2812.597719
0.3245,0.942535553,-2.306751649,1.364216095,357.1724241,1.387270294,2813.218678
0.325,1.272138195,-2.321593655,1.04945546,5.613429775,1.415466751,2814.169656
0.3255,1.548603736,-2.286922986,0.73831925,14.05727907,1.355972304,2814.957675
0.326,1.785498925,-2.163704162,0.378205237,22.50298635,1.379578704,2815.556215
0.3265,2.013927427,-2.016797331,0.002869904,30.9508568,1.400320251,2816.395193
0.327,2.177325489,-1.807171647,-0.370153842,39.40126468,1.361475322,2817.141341
0.3275,2.254521653,-1.539713443,-0.714808211,47.85350015,1.361606015,2817.682796
0.328,2.311225239,-1.255667781,-1.055557457,56.30758899,1.403475275,2818.451784
0.3285,2.304040674,-0.934416294,-1.36962438,64.76443692,1.402956352,2819.446837
0.329,2.251221042,-0.620203394,-1.631017648,73.22399385,1.351106597,2820.165732
0.3295,2.118287504,-0.257713009,-1.860574496,81.68533529,1.384581283,2820.788602
0.33,1.945110934,0.124382691,-2.069493625,90.14895346,1.393078776,2821.639468
0.3305,1.721133165,0.486420795,-2.20755396,98.61499061,1.349965059,2822.308843
0.331,1.447150095,0.824428999,-2.271579094,107.0826627,1.365811199,2822.834428
0.3315,1.150525099,1.161204078,-2.311729177,115.552296,1.40523639,2823.658868
0.332,0.831147622,1.459822182,-2.290969804,124.0247069,1.381934992,2824.574311
0.3325,0.502072665,1.706465386,-2.208538051,132.4994278,1.34594025,2825.17571
0.333,0.138836081,1.929282993,-2.068119074,140.975759,1.381145433,2825.774886
0.3335,-0.243281186,2.119376357,-1.876095171,149.4542622,1.37989313,2826.559092
0.334,-0.595489214,2.232862952,-1.637373738,157.9348887,1.338530784,2827.11844
0.3345,-0.929658509,2.283977251,-1.354318742,166.4169021,1.366345548,2827.607067
0.335,-1.260716011,2.309271434,-1.048555424,174.90084,1.395677914,2828.404611
0.3355,-1.545178816,2.285602367,-0.740423552,183.3872688,1.354186388,2829.141173
0.336,-1.77695401,2.161484969,-0.384530959,191.8753953,1.340760298,2829.586034
0.3365,-1.991648226,2.013839875,-0.022191648,200.3648853,1.372613281,2830.131195
0.337,-2.164134584,1.806581483,0.357553101,208.8563146,1.364854907,2830.808428
0.3375,-2.251933879,1.551364709,0.70056917,217.34949,1.326190983,2831.239743
0.338,-2.292748999,1.26025742,1.032491579,225.8437553,1.365011277,2831.673291
0.3385,-2.305056494,0.949967149,1.355089345,234.3398207,1.38001167,2832.397804
0.339,-2.266106946,0.640571472,1.625535475,242.8379578,1.329952579,2832.937987
0.3395,-2.117357772,0.27142903,1.845928742,251.3372004,1.333415297,2833.229979
0.34,-1.954882036,-0.093360915,2.048242952,259.8375172,1.363248897,2833.701522
0.3405,-1.735290419,-0.468007798,2.203298217,268.3394888,1.347703096,2834.252317
0.341,-1.466275257,-0.80309021,2.269365467,276.8427693,1.313998088,2834.541308
0.3415,-1.16592917,-1.13306814,2.29899731,285.3468252,1.36407426,2834.91892
0.342,-0.854050803,-1.446096651,2.300147454,293.8525449,1.362463712,2835.55868
0.3425,-0.52878646,-1.701119493,2.229905953,302.3599151,1.314587532,2835.936179
0.343,-0.160077021,-1.91220768,2.072284701,310.8679531,1.323346535,2836.104738
0.3435,0.20874077,-2.100140351,1.89139958,319.3767617,1.355168633,2836.491495
0.344,0.576365088,-2.235481492,1.659116404,327.8869413,1.330242589,2836.917513
0.3445,0.904486858,-2.283415443,1.378928585,336.3979936,1.303920887,2837.070348
0.345,1.231158378,-2.301488314,1.070329937,344.9095293,1.361120412,2837.389062
0.3455,1.534508753,-2.291553865,0.757045112,353.42255,1.344941692,2837.929853
0.346,1.773542214,-2.187075164,0.41353295,1.936799926,1.303129081,2838.162174
0.3465,1.975007312,-2.021219568,0.046212255,10.4513577,1.314075981,2838.229105
0.347,2.148281284,-1.823406138,-0.324875146,18.96641831,1.348536034,2838.53979
0.3475,2.261147457,-1.575652798,-0.68549466,27.48261473,1.317121326,2838.868769
0.348,2.293501435,-1.287391888,-1.006109546,35.99936094,1.29797474,2838.927766
0.3485,2.300704735,-0.972043486,-1.328661249,44.51640772,1.359346014,2839.213158
0.349,2.278278536,-0.655368808,-1.622909728,53.03481343,1.329958436,2839.672084
0.3495,2.137326904,-0.294409165,-1.842917739,61.5541051,1.296481539,2839.795892
0.35,1.964142746,0.070296171,-2.034438917,70.07347057,1.307981181,2839.801491
0.3505,1.75053474,0.441911146,-2.192445886,78.5931689,1.343986253,2840.061939
0.351,1.48507418,0.794961394,-2.280035574,87.11384285,1.307776888,2840.32303
0.3515,1.192262651,1.108617237,-2.300879888,95.63485835,1.297445949,2840.335384
0.352,0.869299531,1.425974999,-2.295274531,104.1561297,1.35900636,2840.622326
0.3525,0.543606245,1.707328484,-2.250934729,112.6787087,1.318760722,2841.025625
0.353,0.174479743,1.91193056,-2.086410303,121.2019346,1.293642535,2841.080005
0.3535,-0.189863312,2.089536524,-1.899673212,129.7251252,1.30703006,2841.070856
0.354,-0.559744554,2.231716766,-1.671972213,138.2486177,1.341726769,2841.319725
0.3545,-0.905283673,2.295583107,-1.390299434,146.7730303,1.304249413,2841.555356
0.355,-1.211140616,2.305118061,-1.093977445,155.2977306,1.300711267,2841.57177
0.3555,-1.523360482,2.2874726,-0.764112118,163.8227631,1.360607706,2841.890397
0.356,-1.787329165,2.210154553,-0.422825389,172.3491384,1.312497108,2842.274415
0.3565,-1.978333618,2.031801596,-0.053467978,180.8760461,1.292575559,2842.294984
0.357,-2.140145355,1.828694156,0.311451198,189.4029002,1.31112857,2842.307483
0.3575,-2.264621803,1.586759338,0.677862465,197.9301482,1.34045692,2842.577131
0.358,-2.307800305,1.293498789,1.014301517,206.458316,1.302043558,2842.799778
0.3585,-2.3070095,0.993447555,1.313561945,214.9867688,1.3071322,2842.844371
0.359,-2.272238836,0.653425924,1.618812912,223.515693,1.359957319,2843.199748
0.3595,-2.16160626,0.298530443,1.863075817,232.0459799,1.309061987,2843.567774
0.36,-1.975055918,-0.067784319,2.042840237,240.5767433,1.29326745,2843.579367
0.3605,-1.753700824,-0.433325261,2.187026085,249.1075049,1.318281216,2843.639719
0.361,-1.496244178,-0.795387087,2.291631265,257.6388425,1.34179196,2843.961016
0.3615,-1.195593237,-1.121654723,2.31724796,266.1711747,1.299963221,2844.18597
0.362,-0.888604244,-1.41401578,2.302620024,274.7038058,1.313237989,2844.258387
0.3625,-0.540343841,-1.711819766,2.252163607,283.2370325,1.357236933,2844.638333
0.363,-0.174269544,-1.936326674,2.110596218,291.7716031,1.306696184,2844.985538
0.3635,0.188951099,-2.102738198,1.9137871,300.3066048,1.293473117,2844.991825
0.364,0.554085627,-2.230546996,1.676461369,308.8416562,1.325856764,2845.100266
0.3645,0.911086051,-2.312945386,1.401859335,317.3774742,1.343217672,2845.476537
0.365,1.227019531,-2.324771947,1.097752416,325.9143631,1.297074094,2845.700531
0.3655,1.512941915,-2.295795772,0.782853857,334.4515441,1.318257591,2845.791157
0.366,1.799993525,-2.221280265,0.42128674,342.9894142,1.353701169,2846.185963
0.3665,2.006675406,-2.057306795,0.050631389,351.5285906,1.30491306,2846.511555
0.367,2.157689011,-1.848301544,-0.309387467,0.068160334,1.293265018,2846.513919
0.3675,2.270047938,-1.597637422,-0.672410516,8.607810278,1.330396844,2846.652414
0.368,2.330291344,-1.306386506,-1.023904838,17.14834179,1.342811511,2847.057884
0.3685,2.332085615,-1.00193868,-1.330146935,25.68995355,1.291952982,2847.259325
0.369,2.280750962,-0.672464601,-1.608286361,34.23177545,1.319954606,2847.338474
0.3695,2.182907153,-0.300355332,-1.88255182,42.77428788,1.348454701,2847.721104
0.37,2.002980999,0.071613293,-2.074594292,51.31801166,1.30267246,2848.013317
0.3705,1.778937996,0.428782003,-2.207719999,59.86206961,1.292721886,2848.00736
0.371,1.514860683,0.788418059,-2.303278742,68.40621232,1.331945815,2848.157903
0.3715,1.211719182,1.13342732,-2.345146502,76.95126749,1.33917513,2848.558908
0.372,0.905547302,1.430686458,-2.33623376,85.49731669,1.285123006,2848.710833
0.3725,0.559220243,1.699743478,-2.258963721,94.0434171,1.317663798,2848.747369
0.373,0.179088087,1.95992896,-2.139017047,102.5901087,1.342462628,2849.091711
0.3735,-0.191339452,2.13847321,-1.947133757,111.1378669,1.298549836,2849.335636
0.374,-0.546495701,2.252561292,-1.706065591,119.6858464,1.290884332,2849.303462
0.3745,-0.902733924,2.331222701,-1.428488777,128.2338722,1.333052407,2849.455799
